 LCModel (Version 6.3-1L) Copyright: S.W. Provencher.          Ref.: Magn. Reson. Med. 30:672-679 (1993).                
 /home/lcmodel/Desktop/Bai/subject22_mt
 Data of: Zhejiang University
 26-March-2019  13:36
 33 lines in following concentration table = NCONC+1
    Conc.  %SD /Cr+PCr  Metabolite                                         
    0.000 999%   0.000 Ala                                                 
 2.65E-03 999% 2.4E-03 Asp                                                 
    2.959  28%   2.701 Cr                                                  
    5.807  15%   5.299 PCr                                                 
    2.344  14%   2.139 GABA                                                
    0.000 999%   0.000 Glc                                                 
    1.086  32%   0.991 Gln                                                 
    8.952   4%   8.169 Glu                                                 
    0.668  84%   0.609 GPC                                                 
    1.494  39%   1.363 PCh                                                 
    2.411   8%   2.201 GSH                                                 
    5.163   8%   4.712 mI                                                  
    0.924  30%   0.843 Lac                                                 
   14.547   2%  13.275 NAA                                                 
    0.000 999%   0.000 NAAG                                                
    0.368  29%   0.335 Scyllo                                              
    2.359  13%   2.153 Tau                                                 
   68.278 116%  62.309 -CrCH2                                              
  108.550  50%  99.060 Glyc                                                
    8.766   3%   8.000 Cr+PCr                                              
   14.547   2%  13.275 NAA+NAAG                                            
   10.038   5%   9.160 Glu+Gln                                             
    2.359  13%   2.153 Glc+Tau                                             
    0.000 999%   0.000 Lip13a                                              
   38.474  76%  35.110 Lip13b                                              
 1.47E+03  22% 1.3E+03 Lip09                                               
  481.772  46% 439.651 MM09                                                
  413.774  35% 377.599 Lip20                                               
 1.05E+03  21% 955.200 MM20                                                
  535.136  25% 488.350 MM12                                                
  717.177  17% 654.475 MM14                                                
  591.751  23% 540.015 MM17                                                
   6 lines in following misc. output table
  FWHM = 0.034 ppm    S/N =  12                                            
  Data shift = 0.010 ppm                                                   
  Ph:   0 deg       0.0 deg/ppm                                            
  alphaB,S = 1.7E-01,   2.6E+01                                            
   18 spline knots.   Ns =11(3)                                            
  (16) 9 infls.   (19) 9 extrs.                                            
 2314 points on ppm-axis = NY
      4.000000     3.998357     3.996715     3.995072     3.993429     3.991786     3.990144     3.988501     3.986858     3.985216
      3.983573     3.981930     3.980288     3.978645     3.977002     3.975359     3.973717     3.972074     3.970431     3.968789
      3.967146     3.965503     3.963861     3.962218     3.960575     3.958932     3.957290     3.955647     3.954004     3.952362
      3.950719     3.949076     3.947433     3.945791     3.944148     3.942505     3.940863     3.939220     3.937577     3.935935
      3.934292     3.932649     3.931006     3.929364     3.927721     3.926078     3.924436     3.922793     3.921150     3.919508
      3.917865     3.916222     3.914579     3.912937     3.911294     3.909651     3.908009     3.906366     3.904723     3.903080
      3.901438     3.899795     3.898152     3.896510     3.894867     3.893224     3.891582     3.889939     3.888296     3.886653
      3.885011     3.883368     3.881725     3.880083     3.878440     3.876797     3.875154     3.873512     3.871869     3.870226
      3.868584     3.866941     3.865298     3.863656     3.862013     3.860370     3.858727     3.857085     3.855442     3.853799
      3.852157     3.850514     3.848871     3.847229     3.845586     3.843943     3.842300     3.840658     3.839015     3.837372
      3.835730     3.834087     3.832444     3.830801     3.829159     3.827516     3.825873     3.824231     3.822588     3.820945
      3.819303     3.817660     3.816017     3.814374     3.812732     3.811089     3.809446     3.807804     3.806161     3.804518
      3.802876     3.801233     3.799590     3.797947     3.796305     3.794662     3.793019     3.791377     3.789734     3.788091
      3.786448     3.784806     3.783163     3.781520     3.779878     3.778235     3.776592     3.774950     3.773307     3.771664
      3.770021     3.768379     3.766736     3.765093     3.763451     3.761808     3.760165     3.758523     3.756880     3.755237
      3.753594     3.751952     3.750309     3.748666     3.747024     3.745381     3.743738     3.742095     3.740453     3.738810
      3.737167     3.735525     3.733882     3.732239     3.730597     3.728954     3.727311     3.725668     3.724026     3.722383
      3.720740     3.719098     3.717455     3.715812     3.714170     3.712527     3.710884     3.709241     3.707599     3.705956
      3.704313     3.702671     3.701028     3.699385     3.697742     3.696100     3.694457     3.692814     3.691172     3.689529
      3.687886     3.686244     3.684601     3.682958     3.681315     3.679673     3.678030     3.676387     3.674745     3.673102
      3.671459     3.669816     3.668174     3.666531     3.664888     3.663246     3.661603     3.659960     3.658318     3.656675
      3.655032     3.653389     3.651747     3.650104     3.648461     3.646819     3.645176     3.643533     3.641891     3.640248
      3.638605     3.636962     3.635320     3.633677     3.632034     3.630392     3.628749     3.627106     3.625463     3.623821
      3.622178     3.620535     3.618893     3.617250     3.615607     3.613965     3.612322     3.610679     3.609036     3.607394
      3.605751     3.604108     3.602466     3.600823     3.599180     3.597538     3.595895     3.594252     3.592609     3.590967
      3.589324     3.587681     3.586039     3.584396     3.582753     3.581110     3.579468     3.577825     3.576182     3.574540
      3.572897     3.571254     3.569612     3.567969     3.566326     3.564683     3.563041     3.561398     3.559755     3.558113
      3.556470     3.554827     3.553185     3.551542     3.549899     3.548256     3.546614     3.544971     3.543328     3.541686
      3.540043     3.538400     3.536757     3.535115     3.533472     3.531829     3.530187     3.528544     3.526901     3.525259
      3.523616     3.521973     3.520330     3.518688     3.517045     3.515402     3.513760     3.512117     3.510474     3.508832
      3.507189     3.505546     3.503903     3.502261     3.500618     3.498975     3.497333     3.495690     3.494047     3.492404
      3.490762     3.489119     3.487476     3.485834     3.484191     3.482548     3.480906     3.479263     3.477620     3.475977
      3.474335     3.472692     3.471049     3.469407     3.467764     3.466121     3.464478     3.462836     3.461193     3.459550
      3.457908     3.456265     3.454622     3.452980     3.451337     3.449694     3.448051     3.446409     3.444766     3.443123
      3.441481     3.439838     3.438195     3.436553     3.434910     3.433267     3.431624     3.429982     3.428339     3.426696
      3.425054     3.423411     3.421768     3.420125     3.418483     3.416840     3.415197     3.413555     3.411912     3.410269
      3.408627     3.406984     3.405341     3.403698     3.402056     3.400413     3.398770     3.397128     3.395485     3.393842
      3.392200     3.390557     3.388914     3.387271     3.385629     3.383986     3.382343     3.380701     3.379058     3.377415
      3.375772     3.374130     3.372487     3.370844     3.369202     3.367559     3.365916     3.364274     3.362631     3.360988
      3.359345     3.357703     3.356060     3.354417     3.352775     3.351132     3.349489     3.347847     3.346204     3.344561
      3.342918     3.341276     3.339633     3.337990     3.336348     3.334705     3.333062     3.331419     3.329777     3.328134
      3.326491     3.324849     3.323206     3.321563     3.319921     3.318278     3.316635     3.314992     3.313350     3.311707
      3.310064     3.308422     3.306779     3.305136     3.303493     3.301851     3.300208     3.298565     3.296923     3.295280
      3.293637     3.291995     3.290352     3.288709     3.287066     3.285424     3.283781     3.282138     3.280496     3.278853
      3.277210     3.275568     3.273925     3.272282     3.270639     3.268997     3.267354     3.265711     3.264069     3.262426
      3.260783     3.259140     3.257498     3.255855     3.254212     3.252570     3.250927     3.249284     3.247642     3.245999
      3.244356     3.242713     3.241071     3.239428     3.237785     3.236143     3.234500     3.232857     3.231215     3.229572
      3.227929     3.226286     3.224644     3.223001     3.221358     3.219716     3.218073     3.216430     3.214787     3.213145
      3.211502     3.209859     3.208217     3.206574     3.204931     3.203289     3.201646     3.200003     3.198360     3.196718
      3.195075     3.193432     3.191790     3.190147     3.188504     3.186862     3.185219     3.183576     3.181933     3.180291
      3.178648     3.177005     3.175363     3.173720     3.172077     3.170434     3.168792     3.167149     3.165506     3.163864
      3.162221     3.160578     3.158936     3.157293     3.155650     3.154007     3.152365     3.150722     3.149079     3.147437
      3.145794     3.144151     3.142509     3.140866     3.139223     3.137580     3.135938     3.134295     3.132652     3.131010
      3.129367     3.127724     3.126081     3.124439     3.122796     3.121153     3.119511     3.117868     3.116225     3.114583
      3.112940     3.111297     3.109654     3.108012     3.106369     3.104726     3.103084     3.101441     3.099798     3.098155
      3.096513     3.094870     3.093227     3.091585     3.089942     3.088299     3.086657     3.085014     3.083371     3.081728
      3.080086     3.078443     3.076800     3.075158     3.073515     3.071872     3.070230     3.068587     3.066944     3.065301
      3.063659     3.062016     3.060373     3.058731     3.057088     3.055445     3.053802     3.052160     3.050517     3.048874
      3.047232     3.045589     3.043946     3.042304     3.040661     3.039018     3.037375     3.035733     3.034090     3.032447
      3.030805     3.029162     3.027519     3.025877     3.024234     3.022591     3.020948     3.019306     3.017663     3.016020
      3.014378     3.012735     3.011092     3.009449     3.007807     3.006164     3.004521     3.002879     3.001236     2.999593
      2.997951     2.996308     2.994665     2.993022     2.991380     2.989737     2.988094     2.986452     2.984809     2.983166
      2.981524     2.979881     2.978238     2.976595     2.974953     2.973310     2.971667     2.970025     2.968382     2.966739
      2.965096     2.963454     2.961811     2.960168     2.958526     2.956883     2.955240     2.953598     2.951955     2.950312
      2.948669     2.947027     2.945384     2.943741     2.942099     2.940456     2.938813     2.937171     2.935528     2.933885
      2.932242     2.930600     2.928957     2.927314     2.925672     2.924029     2.922386     2.920743     2.919101     2.917458
      2.915815     2.914173     2.912530     2.910887     2.909245     2.907602     2.905959     2.904316     2.902674     2.901031
      2.899388     2.897746     2.896103     2.894460     2.892817     2.891175     2.889532     2.887889     2.886247     2.884604
      2.882961     2.881319     2.879676     2.878033     2.876390     2.874748     2.873105     2.871462     2.869820     2.868177
      2.866534     2.864892     2.863249     2.861606     2.859963     2.858321     2.856678     2.855035     2.853393     2.851750
      2.850107     2.848464     2.846822     2.845179     2.843536     2.841894     2.840251     2.838608     2.836966     2.835323
      2.833680     2.832037     2.830395     2.828752     2.827109     2.825467     2.823824     2.822181     2.820539     2.818896
      2.817253     2.815610     2.813968     2.812325     2.810682     2.809040     2.807397     2.805754     2.804111     2.802469
      2.800826     2.799183     2.797541     2.795898     2.794255     2.792613     2.790970     2.789327     2.787684     2.786042
      2.784399     2.782756     2.781114     2.779471     2.777828     2.776186     2.774543     2.772900     2.771257     2.769615
      2.767972     2.766329     2.764687     2.763044     2.761401     2.759758     2.758116     2.756473     2.754830     2.753188
      2.751545     2.749902     2.748260     2.746617     2.744974     2.743331     2.741689     2.740046     2.738403     2.736761
      2.735118     2.733475     2.731833     2.730190     2.728547     2.726904     2.725262     2.723619     2.721976     2.720334
      2.718691     2.717048     2.715405     2.713763     2.712120     2.710477     2.708835     2.707192     2.705549     2.703907
      2.702264     2.700621     2.698978     2.697336     2.695693     2.694050     2.692408     2.690765     2.689122     2.687479
      2.685837     2.684194     2.682551     2.680909     2.679266     2.677623     2.675981     2.674338     2.672695     2.671052
      2.669410     2.667767     2.666124     2.664482     2.662839     2.661196     2.659554     2.657911     2.656268     2.654625
      2.652983     2.651340     2.649697     2.648055     2.646412     2.644769     2.643126     2.641484     2.639841     2.638198
      2.636556     2.634913     2.633270     2.631628     2.629985     2.628342     2.626699     2.625057     2.623414     2.621771
      2.620129     2.618486     2.616843     2.615201     2.613558     2.611915     2.610272     2.608630     2.606987     2.605344
      2.603702     2.602059     2.600416     2.598773     2.597131     2.595488     2.593845     2.592203     2.590560     2.588917
      2.587275     2.585632     2.583989     2.582346     2.580704     2.579061     2.577418     2.575776     2.574133     2.572490
      2.570848     2.569205     2.567562     2.565919     2.564277     2.562634     2.560991     2.559349     2.557706     2.556063
      2.554420     2.552778     2.551135     2.549492     2.547850     2.546207     2.544564     2.542922     2.541279     2.539636
      2.537993     2.536351     2.534708     2.533065     2.531423     2.529780     2.528137     2.526495     2.524852     2.523209
      2.521566     2.519924     2.518281     2.516638     2.514996     2.513353     2.511710     2.510067     2.508425     2.506782
      2.505139     2.503497     2.501854     2.500211     2.498569     2.496926     2.495283     2.493640     2.491998     2.490355
      2.488712     2.487070     2.485427     2.483784     2.482141     2.480499     2.478856     2.477213     2.475571     2.473928
      2.472285     2.470643     2.469000     2.467357     2.465714     2.464072     2.462429     2.460786     2.459144     2.457501
      2.455858     2.454216     2.452573     2.450930     2.449287     2.447645     2.446002     2.444359     2.442717     2.441074
      2.439431     2.437788     2.436146     2.434503     2.432860     2.431218     2.429575     2.427932     2.426290     2.424647
      2.423004     2.421361     2.419719     2.418076     2.416433     2.414791     2.413148     2.411505     2.409863     2.408220
      2.406577     2.404934     2.403292     2.401649     2.400006     2.398364     2.396721     2.395078     2.393435     2.391793
      2.390150     2.388507     2.386865     2.385222     2.383579     2.381937     2.380294     2.378651     2.377008     2.375366
      2.373723     2.372080     2.370438     2.368795     2.367152     2.365510     2.363867     2.362224     2.360581     2.358939
      2.357296     2.355653     2.354011     2.352368     2.350725     2.349082     2.347440     2.345797     2.344154     2.342512
      2.340869     2.339226     2.337584     2.335941     2.334298     2.332655     2.331013     2.329370     2.327727     2.326085
      2.324442     2.322799     2.321157     2.319514     2.317871     2.316228     2.314586     2.312943     2.311300     2.309658
      2.308015     2.306372     2.304729     2.303087     2.301444     2.299801     2.298159     2.296516     2.294873     2.293231
      2.291588     2.289945     2.288302     2.286660     2.285017     2.283374     2.281732     2.280089     2.278446     2.276803
      2.275161     2.273518     2.271875     2.270233     2.268590     2.266947     2.265305     2.263662     2.262019     2.260376
      2.258734     2.257091     2.255448     2.253806     2.252163     2.250520     2.248878     2.247235     2.245592     2.243949
      2.242307     2.240664     2.239021     2.237379     2.235736     2.234093     2.232450     2.230808     2.229165     2.227522
      2.225880     2.224237     2.222594     2.220952     2.219309     2.217666     2.216023     2.214381     2.212738     2.211095
      2.209453     2.207810     2.206167     2.204525     2.202882     2.201239     2.199596     2.197954     2.196311     2.194668
      2.193026     2.191383     2.189740     2.188097     2.186455     2.184812     2.183169     2.181527     2.179884     2.178241
      2.176599     2.174956     2.173313     2.171670     2.170028     2.168385     2.166742     2.165100     2.163457     2.161814
      2.160172     2.158529     2.156886     2.155243     2.153601     2.151958     2.150315     2.148673     2.147030     2.145387
      2.143744     2.142102     2.140459     2.138816     2.137174     2.135531     2.133888     2.132246     2.130603     2.128960
      2.127317     2.125675     2.124032     2.122389     2.120747     2.119104     2.117461     2.115819     2.114176     2.112533
      2.110890     2.109248     2.107605     2.105962     2.104320     2.102677     2.101034     2.099391     2.097749     2.096106
      2.094463     2.092821     2.091178     2.089535     2.087893     2.086250     2.084607     2.082964     2.081322     2.079679
      2.078036     2.076394     2.074751     2.073108     2.071465     2.069823     2.068180     2.066537     2.064895     2.063252
      2.061609     2.059967     2.058324     2.056681     2.055038     2.053396     2.051753     2.050110     2.048468     2.046825
      2.045182     2.043540     2.041897     2.040254     2.038611     2.036969     2.035326     2.033683     2.032041     2.030398
      2.028755     2.027112     2.025470     2.023827     2.022184     2.020542     2.018899     2.017256     2.015614     2.013971
      2.012328     2.010685     2.009043     2.007400     2.005757     2.004115     2.002472     2.000829     1.999186     1.997544
      1.995901     1.994258     1.992615     1.990972     1.989329     1.987687     1.986044     1.984401     1.982758     1.981115
      1.979473     1.977830     1.976187     1.974544     1.972901     1.971258     1.969616     1.967973     1.966330     1.964687
      1.963044     1.961401     1.959759     1.958116     1.956473     1.954830     1.953187     1.951545     1.949902     1.948259
      1.946616     1.944973     1.943330     1.941688     1.940045     1.938402     1.936759     1.935116     1.933473     1.931831
      1.930188     1.928545     1.926902     1.925259     1.923617     1.921974     1.920331     1.918688     1.917045     1.915402
      1.913760     1.912117     1.910474     1.908831     1.907188     1.905545     1.903903     1.902260     1.900617     1.898974
      1.897331     1.895689     1.894046     1.892403     1.890760     1.889117     1.887474     1.885832     1.884189     1.882546
      1.880903     1.879260     1.877617     1.875975     1.874332     1.872689     1.871046     1.869403     1.867761     1.866118
      1.864475     1.862832     1.861189     1.859546     1.857904     1.856261     1.854618     1.852975     1.851332     1.849689
      1.848047     1.846404     1.844761     1.843118     1.841475     1.839833     1.838190     1.836547     1.834904     1.833261
      1.831618     1.829976     1.828333     1.826690     1.825047     1.823404     1.821761     1.820119     1.818476     1.816833
      1.815190     1.813547     1.811905     1.810262     1.808619     1.806976     1.805333     1.803690     1.802048     1.800405
      1.798762     1.797119     1.795476     1.793833     1.792191     1.790548     1.788905     1.787262     1.785619     1.783977
      1.782334     1.780691     1.779048     1.777405     1.775762     1.774120     1.772477     1.770834     1.769191     1.767548
      1.765905     1.764263     1.762620     1.760977     1.759334     1.757691     1.756049     1.754406     1.752763     1.751120
      1.749477     1.747834     1.746192     1.744549     1.742906     1.741263     1.739620     1.737978     1.736335     1.734692
      1.733049     1.731406     1.729763     1.728121     1.726478     1.724835     1.723192     1.721549     1.719906     1.718264
      1.716621     1.714978     1.713335     1.711692     1.710050     1.708407     1.706764     1.705121     1.703478     1.701835
      1.700193     1.698550     1.696907     1.695264     1.693621     1.691978     1.690336     1.688693     1.687050     1.685407
      1.683764     1.682122     1.680479     1.678836     1.677193     1.675550     1.673907     1.672265     1.670622     1.668979
      1.667336     1.665693     1.664050     1.662408     1.660765     1.659122     1.657479     1.655836     1.654194     1.652551
      1.650908     1.649265     1.647622     1.645979     1.644337     1.642694     1.641051     1.639408     1.637765     1.636122
      1.634480     1.632837     1.631194     1.629551     1.627908     1.626266     1.624623     1.622980     1.621337     1.619694
      1.618051     1.616409     1.614766     1.613123     1.611480     1.609837     1.608194     1.606552     1.604909     1.603266
      1.601623     1.599980     1.598338     1.596695     1.595052     1.593409     1.591766     1.590123     1.588481     1.586838
      1.585195     1.583552     1.581909     1.580266     1.578624     1.576981     1.575338     1.573695     1.572052     1.570410
      1.568767     1.567124     1.565481     1.563838     1.562195     1.560553     1.558910     1.557267     1.555624     1.553981
      1.552338     1.550696     1.549053     1.547410     1.545767     1.544124     1.542482     1.540839     1.539196     1.537553
      1.535910     1.534267     1.532625     1.530982     1.529339     1.527696     1.526053     1.524410     1.522768     1.521125
      1.519482     1.517839     1.516196     1.514554     1.512911     1.511268     1.509625     1.507982     1.506339     1.504697
      1.503054     1.501411     1.499768     1.498125     1.496482     1.494840     1.493197     1.491554     1.489911     1.488268
      1.486626     1.484983     1.483340     1.481697     1.480054     1.478411     1.476769     1.475126     1.473483     1.471840
      1.470197     1.468554     1.466912     1.465269     1.463626     1.461983     1.460340     1.458698     1.457055     1.455412
      1.453769     1.452126     1.450483     1.448841     1.447198     1.445555     1.443912     1.442269     1.440627     1.438984
      1.437341     1.435698     1.434055     1.432412     1.430770     1.429127     1.427484     1.425841     1.424198     1.422555
      1.420913     1.419270     1.417627     1.415984     1.414341     1.412699     1.411056     1.409413     1.407770     1.406127
      1.404484     1.402842     1.401199     1.399556     1.397913     1.396270     1.394627     1.392985     1.391342     1.389699
      1.388056     1.386413     1.384771     1.383128     1.381485     1.379842     1.378199     1.376556     1.374914     1.373271
      1.371628     1.369985     1.368342     1.366699     1.365057     1.363414     1.361771     1.360128     1.358485     1.356843
      1.355200     1.353557     1.351914     1.350271     1.348628     1.346986     1.345343     1.343700     1.342057     1.340414
      1.338771     1.337129     1.335486     1.333843     1.332200     1.330557     1.328915     1.327272     1.325629     1.323986
      1.322343     1.320700     1.319058     1.317415     1.315772     1.314129     1.312486     1.310843     1.309201     1.307558
      1.305915     1.304272     1.302629     1.300987     1.299344     1.297701     1.296058     1.294415     1.292772     1.291130
      1.289487     1.287844     1.286201     1.284558     1.282915     1.281273     1.279630     1.277987     1.276344     1.274701
      1.273059     1.271416     1.269773     1.268130     1.266487     1.264844     1.263202     1.261559     1.259916     1.258273
      1.256630     1.254987     1.253345     1.251702     1.250059     1.248416     1.246773     1.245131     1.243488     1.241845
      1.240202     1.238559     1.236916     1.235274     1.233631     1.231988     1.230345     1.228702     1.227059     1.225417
      1.223774     1.222131     1.220488     1.218845     1.217203     1.215560     1.213917     1.212274     1.210631     1.208988
      1.207346     1.205703     1.204060     1.202417     1.200774     1.199131     1.197489     1.195846     1.194203     1.192560
      1.190917     1.189275     1.187632     1.185989     1.184346     1.182703     1.181060     1.179418     1.177775     1.176132
      1.174489     1.172846     1.171203     1.169561     1.167918     1.166275     1.164632     1.162989     1.161347     1.159704
      1.158061     1.156418     1.154775     1.153132     1.151490     1.149847     1.148204     1.146561     1.144918     1.143275
      1.141633     1.139990     1.138347     1.136704     1.135061     1.133419     1.131776     1.130133     1.128490     1.126847
      1.125204     1.123562     1.121919     1.120276     1.118633     1.116990     1.115348     1.113705     1.112062     1.110419
      1.108776     1.107133     1.105491     1.103848     1.102205     1.100562     1.098919     1.097276     1.095634     1.093991
      1.092348     1.090705     1.089062     1.087420     1.085777     1.084134     1.082491     1.080848     1.079205     1.077563
      1.075920     1.074277     1.072634     1.070991     1.069348     1.067706     1.066063     1.064420     1.062777     1.061134
      1.059492     1.057849     1.056206     1.054563     1.052920     1.051277     1.049635     1.047992     1.046349     1.044706
      1.043063     1.041420     1.039778     1.038135     1.036492     1.034849     1.033206     1.031564     1.029921     1.028278
      1.026635     1.024992     1.023349     1.021707     1.020064     1.018421     1.016778     1.015135     1.013492     1.011850
      1.010207     1.008564     1.006921     1.005278     1.003636     1.001993     1.000350     0.998707     0.997064     0.995421
      0.993779     0.992136     0.990493     0.988850     0.987207     0.985564     0.983922     0.982279     0.980636     0.978993
      0.977350     0.975708     0.974065     0.972422     0.970779     0.969136     0.967493     0.965851     0.964208     0.962565
      0.960922     0.959279     0.957636     0.955994     0.954351     0.952708     0.951065     0.949422     0.947780     0.946137
      0.944494     0.942851     0.941208     0.939565     0.937923     0.936280     0.934637     0.932994     0.931351     0.929708
      0.928066     0.926423     0.924780     0.923137     0.921494     0.919852     0.918209     0.916566     0.914923     0.913280
      0.911637     0.909995     0.908352     0.906709     0.905066     0.903423     0.901780     0.900138     0.898495     0.896852
      0.895209     0.893566     0.891924     0.890281     0.888638     0.886995     0.885352     0.883709     0.882067     0.880424
      0.878781     0.877138     0.875495     0.873852     0.872210     0.870567     0.868924     0.867281     0.865638     0.863996
      0.862353     0.860710     0.859067     0.857424     0.855781     0.854139     0.852496     0.850853     0.849210     0.847567
      0.845924     0.844282     0.842639     0.840996     0.839353     0.837710     0.836068     0.834425     0.832782     0.831139
      0.829496     0.827853     0.826211     0.824568     0.822925     0.821282     0.819639     0.817997     0.816354     0.814711
      0.813068     0.811425     0.809782     0.808140     0.806497     0.804854     0.803211     0.801568     0.799925     0.798283
      0.796640     0.794997     0.793354     0.791711     0.790069     0.788426     0.786783     0.785140     0.783497     0.781854
      0.780212     0.778569     0.776926     0.775283     0.773640     0.771997     0.770355     0.768712     0.767069     0.765426
      0.763783     0.762141     0.760498     0.758855     0.757212     0.755569     0.753926     0.752284     0.750641     0.748998
      0.747355     0.745712     0.744069     0.742427     0.740784     0.739141     0.737498     0.735855     0.734213     0.732570
      0.730927     0.729284     0.727641     0.725998     0.724356     0.722713     0.721070     0.719427     0.717784     0.716141
      0.714499     0.712856     0.711213     0.709570     0.707927     0.706285     0.704642     0.702999     0.701356     0.699713
      0.698070     0.696428     0.694785     0.693142     0.691499     0.689856     0.688213     0.686571     0.684928     0.683285
